0.000200 307
0.000500 2
0.000700 920
0.000800 423
0.000900 214
0.001200 905
0.001300 707
0.001700 108
0.001700 236
0.001700 764
0.001700 768
0.001800 491
0.001900 192
0.002300 145
0.002800 942
0.003300 986
0.003400 551
0.003500 885
0.004100 576
0.004100 592
0.004500 671
0.004700 351
0.004700 792
0.004700 885
0.005000 743
0.005000 829
0.005100 418
0.005200 446
0.005400 245
0.005600 406
0.005700 856
0.006500 22
0.006800 288
0.007000 947
0.007300 306
0.007500 174
0.007700 686
0.007900 369
0.007900 719
0.008100 781
0.008300 792
0.008500 78
0.008600 254
0.008900 131
0.008900 974
0.009200 238
0.009900 412
0.010300 141
0.010400 175
0.010600 750
0.010800 742
0.011800 672
0.012000 388
0.012100 433
0.012400 95
0.012400 411
0.012600 963
0.012700 161
0.012900 168
0.013000 569
0.013100 101
0.013100 656
0.013200 256
0.013200 824
0.013400 369
0.013400 687
0.013500 74
0.013600 243
0.013800 57
0.013800 858
0.014100 985
0.014200 735
0.014400 381
0.014500 442
0.014700 651
0.015000 592
0.015000 602
0.015100 377
0.015600 69
0.015600 892
0.015700 399
0.016400 910
0.016800 541
0.017000 454
0.017000 476
0.017100 636
0.017200 224
0.017300 575
0.017400 118
0.017400 815
0.017600 549
0.017700 574
0.017800 868
0.018000 618
0.018200 143
0.018200 207
0.018600 745
0.018600 763
0.019100 568
0.019300 202
0.020900 895
0.021300 180
0.021300 477
0.021400 741
0.021600 336
0.021600 561
0.021700 336
0.021800 592
0.021900 726
0.022000 546
0.022100 454
0.022200 607
0.022600 900
0.023100 858
0.023400 832
0.023500 724
0.023600 982
0.024500 302
0.024700 899
0.024900 115
0.024900 662
0.025400 605
0.025600 53
0.025700 76
0.025900 448
0.026300 119
0.026400 65
0.026500 32
0.026800 10
0.026900 897
0.027000 253
0.027000 894
0.027100 555
0.027500 411
0.027800 469
0.027900 997
0.028000 52
0.028000 470
0.028100 723
0.028200 231
0.028200 500
0.028600 121
0.029100 48
0.029100 769
0.029200 504
0.029200 681
0.029500 841
0.029600 311
0.029800 350
0.029800 546
0.029900 860
0.030000 753
0.030100 708
0.030100 715
0.030200 593
0.030600 912
0.030900 790
0.031100 49
0.031600 559
0.031700 637
0.031800 555
0.031900 289
0.032000 166
0.032300 285
0.032400 385
0.032800 946
0.032900 630
0.033200 545
0.034200 504
0.034400 379
0.034900 74
0.034900 971
0.035200 714
0.035300 328
0.035400 38
0.036400 148
0.036700 37
0.036900 543
0.037000 251
0.037600 900
0.037900 648
0.038000 879
0.038600 177
0.038700 636
0.038900 656
0.039100 766
0.040000 17
0.040500 729
0.041100 247
0.041200 170
0.041200 357
0.042200 770
0.042300 791
0.042500 332
0.042600 346
0.042900 492
0.043100 267
0.043100 330
0.043100 941
0.043400 789
0.043800 604
0.044100 114
0.044100 180
0.044200 670
0.044300 702
0.044500 546
0.045000 83
0.045200 401
0.045300 403
0.045300 727
0.045700 835
0.045800 96
0.045800 477
0.045800 907
0.045900 440
0.046000 18
0.046000 216
0.046000 922
0.046100 644
0.046300 343
0.046300 587
0.046600 521
0.046700 139
0.046900 225
0.047000 577
0.047000 583
0.047000 777
0.047400 858
0.047500 896
0.048000 208
0.048300 178
0.048300 969
0.048400 214
0.048400 947
0.048700 607
0.049200 361
0.049300 225
0.049300 307
0.049500 810
0.049500 875
0.049600 387
0.049900 222
0.050300 561
0.050300 965
0.051000 548
0.051000 701
0.051100 104
0.051100 954
0.051200 377
0.052300 533
0.052300 849
0.053400 751
0.053500 274
0.053700 97
0.053700 791
0.054000 6
0.054100 82
0.054100 651
0.054200 914
0.054500 7
0.054500 402
0.054600 367
0.054900 327
0.055300 579
0.055600 69
0.055800 464
0.055800 763
0.056000 52
0.056700 80
0.056700 638
0.057100 984
0.057200 260
0.057700 795
0.058200 392
0.059000 150
0.059000 525
0.059400 68
0.059500 215
0.059600 186
0.059800 32
0.059800 349
0.060000 177
0.060200 37
0.060300 241
0.060300 957
0.060400 49
0.060400 377
0.060700 64
0.060700 80
0.060900 754
0.061100 413
0.061100 971
0.061400 231
0.061500 368
0.061600 186
0.062100 232
0.062100 845
0.062100 878
0.062400 771
0.062600 716
0.062600 957
0.062800 844
0.063000 130
0.063000 195
0.063100 256
0.063300 53
0.063300 571
0.063400 654
0.063600 206
0.063600 977
0.064000 819
0.064100 896
0.064200 399
0.064200 606
0.064400 497
0.064800 529
0.065100 303
0.065400 722
0.065500 910
0.065800 254
0.065900 756
0.066700 182
0.066900 146
0.067100 489
0.067700 309
0.067900 518
0.068100 248
0.068100 644
0.068100 845
0.068600 106
0.068600 270
0.068600 602
0.068700 852
0.068700 971
0.068800 46
0.069000 506
0.069000 576
0.069000 775
0.069400 941
0.069500 494
0.070000 409
0.070200 861
0.070300 704
0.070500 366
0.070600 596
0.070700 856
0.070800 516
0.071400 255
0.071800 366
0.071800 596
0.071900 393
0.072000 463
0.072000 995
0.072200 575
0.072500 902
0.072700 556
0.072900 715
0.073100 29
0.073100 385
0.073100 791
0.073200 127
0.073500 952
0.073600 702
0.073700 369
0.073700 949
0.073900 197
0.074100 651
0.074200 79
0.074800 18
0.075100 687
0.075800 47
0.076400 30
0.076500 70
0.076600 930
0.076800 676
0.077400 71
0.077700 17
0.077700 425
0.078500 261
0.078500 856
0.079100 295
0.079200 175
0.079200 751
0.079300 103
0.079300 979
0.079400 309
0.079700 991
0.080100 261
0.080900 367
0.080900 657
0.081000 240
0.081500 594
0.082600 178
0.082700 388
0.083100 26
0.083200 243
0.083300 237
0.083700 527
0.083800 110
0.083800 175
0.084000 332
0.084500 400
0.084500 534
0.084700 264
0.084900 812
0.085000 289
0.085200 928
0.085300 403
0.085400 112
0.085700 690
0.085800 706
0.086300 852
0.086300 857
0.086800 540
0.087100 292
0.087400 269
0.087400 891
0.087600 964
0.087700 124
0.087700 329
0.088100 216
0.088200 408
0.088200 759
0.088300 49
0.088500 396
0.088800 620
0.089200 165
0.089200 404
0.089200 732
0.089300 380
0.089300 702
0.089500 631
0.089500 952
0.089700 201
0.089900 755
0.089900 756
0.090200 277
0.090400 342
0.090400 837
0.091500 241
0.091500 342
0.091700 589
0.091900 664
0.092200 458
0.092300 636
0.092400 98
0.092400 786
0.092800 151
0.092900 986
0.093500 41
0.093500 822
0.093600 102
0.093700 828
0.094400 323
0.095000 611
0.095600 330
0.095700 414
0.095700 617
0.096600 53
0.097400 629
0.097500 415
0.097800 161
0.097800 726
0.097900 716
0.098300 821
0.098400 766
0.098500 852
0.098600 120
0.099000 174
0.099000 503
0.099500 497
0.099700 767
0.099800 240
0.100000 598
0.100200 533
0.100400 230
0.101100 8
0.101100 819
0.101200 745
0.101200 998
0.101500 215
0.101500 220
0.101800 792
0.102100 484
0.102200 757
0.102500 873
0.102900 836
0.103000 77
0.103000 118
0.103500 487
0.103700 144
0.104000 723
0.104100 108
0.104100 194
0.104100 699
0.104200 27
0.104200 247
0.104500 364
0.104600 916
0.104800 598
0.105000 873
0.105300 244
0.105900 517
0.106100 143
0.106800 408
0.106900 591
0.107100 492
0.107400 829
0.107500 798
0.107800 371
0.107900 772
0.107900 864
0.108400 730
0.108700 614
0.108900 313
0.109100 597
0.109200 960
0.109300 376
0.109300 861
0.109600 900
0.110100 180
0.110600 108
0.110700 932
0.111000 525
0.111200 869
0.111300 816
0.111500 205
0.111500 349
0.111600 897
0.111700 609
0.112200 214
0.112800 388
0.113000 327
0.113000 402
0.113200 397
0.113400 354
0.113400 405
0.113800 321
0.113800 590
0.113900 699
0.114100 75
0.114200 386
0.114200 413
0.114300 166
0.114300 522
0.114700 914
0.115000 104
0.115400 133
0.115400 141
0.115400 163
0.115400 604
0.115400 942
0.115800 710
0.115900 231
0.116200 400
0.116400 541
0.116400 796
0.116700 206
0.117600 244
0.117800 76
0.117800 586
0.117800 702
0.117800 954
0.118100 842
0.118200 477
0.118500 251
0.118500 321
0.118700 30
0.118700 327
0.119300 752
0.119600 449
0.119800 245
0.119900 441
0.120300 85
0.120800 528
0.121200 914
0.121400 882
0.121700 284
0.122000 294
0.122400 640
0.122500 758
0.123100 299
0.123200 853
0.123700 31
0.123700 39
0.123800 712
0.123800 764
0.124200 149
0.124200 515
0.124400 372
0.124400 394
0.124400 648
0.124500 526
0.124800 607
0.125000 233
0.125400 962
0.125800 458
0.125900 15
0.125900 515
0.126000 514
0.126200 114
0.126500 291
0.126700 207
0.126900 93
0.126900 828
0.127100 496
0.127100 833
0.127300 46
0.127500 21
0.127600 301
0.127900 441
0.128000 973
0.128200 689
0.128300 606
0.128700 567
0.128700 959
0.128700 969
0.128900 531
0.129200 975
0.129600 764
0.129800 157
0.129900 672
0.130000 416
0.130400 416
0.130900 799
0.131000 271
0.131300 476
0.131700 390
0.132600 312
0.132700 966
0.132800 504
0.133200 310
0.133400 291
0.134300 485
0.134300 515
0.134500 565
0.134800 858
0.134900 772
0.135100 253
0.135100 710
0.135200 27
0.135200 363
0.135300 796
0.135400 758
0.135800 987
0.136200 966
0.136300 659
0.136300 776
0.136500 346
0.136600 384
0.136700 142
0.136700 924
0.137100 143
0.137400 181
0.137400 194
0.137400 949
0.137800 830
0.137800 875
0.137900 44
0.137900 779
0.138100 267
0.138800 627
0.138800 762
0.139000 733
0.139200 6
0.139300 852
0.139700 292
0.140100 469
0.140600 125
0.140600 541
0.141200 589
0.141300 438
0.141500 733
0.142200 434
0.142300 592
0.142500 408
0.142700 875
0.143100 735
0.143200 931
0.143300 55
0.143400 313
0.145000 85
0.145200 68
0.145300 199
0.145300 602
0.145300 635
0.145800 939
0.146300 849
0.146400 561
0.147200 142
0.147600 906
0.147900 161
0.148200 54
0.148200 312
0.148300 509
0.148300 678
0.148400 285
0.148600 8
0.148600 464
0.148800 154
0.148900 46
0.148900 844
0.148900 851
0.149300 477
0.150000 338
0.150100 495
0.150300 100
0.150400 518
0.150500 89
0.150500 926
0.150700 831
0.150800 562
0.150900 800
0.151100 526
0.151100 916
0.152100 751
0.152300 133
0.152300 845
0.152400 351
0.153500 572
0.154800 80
0.155200 863
0.155400 865
0.155500 260
0.155600 953
0.156000 429
0.156400 208
0.156600 601
0.156700 329
0.156700 452
0.157000 30
0.157000 104
0.157100 534
0.157100 822
0.157300 639
0.157400 641
0.157400 858
0.157700 292
0.157700 558
0.157900 209
0.158100 174
0.158100 987
0.158200 676
0.159100 564
0.159400 765
0.160100 423
0.160100 657
0.160300 556
0.160300 898
0.160600 704
0.160700 788
0.160900 590
0.161000 168
0.161000 603
0.161100 668
0.161200 74
0.161500 646
0.161600 994
0.161700 96
0.161900 225
0.162000 253
0.162000 438
0.162200 196
0.162200 846
0.162500 265
0.162600 264
0.163000 815
0.163200 632
0.163300 575
0.163500 655
0.163700 742
0.163700 844
0.164800 950
0.164900 373
0.165100 971
0.165200 188
0.165300 757
0.165400 723
0.165500 746
0.165800 79
0.166200 913
0.166400 357
0.166500 255
0.166600 646
0.166700 947
0.166900 461
0.167200 408
0.167200 908
0.167400 568
0.167500 379
0.168000 967
0.168100 663
0.168300 770
0.168600 496
0.168600 799
0.168900 938
0.169000 20
0.169300 372
0.169400 773
0.169800 464
0.169900 564
0.169900 828
0.170300 693
0.170500 490
0.170900 1
0.171500 102
0.171500 643
0.171700 513
0.171700 601
0.172300 842
0.172400 157
0.172500 763
0.172500 880
0.172800 766
0.173000 143
0.173100 294
0.173200 177
0.173200 632
0.173200 679
0.173700 902
0.174000 363
0.174100 380
0.174800 164
0.175100 198
0.175100 940
0.175200 750
0.175300 374
0.175400 960
0.175700 461
0.176500 558
0.176600 439
0.176900 652
0.177500 665
0.177700 159
0.178100 712
0.178100 942
0.178900 156
0.178900 394
0.179000 791
0.179100 329
0.179200 5
0.179200 371
0.179800 80
0.179900 12
0.179900 911
0.180000 182
0.180300 281
0.180400 55
0.180500 81
0.180700 976
0.181000 44
0.181300 574
0.181600 54
0.181600 554
0.181900 641
0.182100 375
0.182400 61
0.182400 755
0.182700 767
0.182700 961
0.183100 71
0.183300 304
0.183400 833
0.184100 353
0.184100 995
0.184300 25
0.184300 783
0.184600 578
0.184700 992
0.184800 381
0.184900 62
0.185200 118
0.185200 868
0.185300 619
0.185500 502
0.185600 898
0.185700 761
0.186000 416
0.186300 455
0.186300 729
0.186500 133
0.187200 994
0.187500 895
0.187600 537
0.187700 353
0.188200 591
0.188200 877
0.188800 877
0.188900 515
0.189000 183
0.189000 426
0.189400 685
0.189400 709
0.189400 847
0.189500 271
0.189500 946
0.190200 344
0.190400 814
0.190700 31
0.191000 697
0.191300 285
0.191400 922
0.191500 330
0.192100 0
0.192100 44
0.192200 347
0.192200 673
0.192300 494
0.192400 590
0.192500 258
0.192600 915
0.192700 54
0.192700 541
0.192900 813
0.193800 96
0.194500 227
0.194500 300
0.194700 312
0.194800 780
0.195000 362
0.195300 302
0.195500 418
0.195500 861
0.195800 843
0.195900 234
0.196100 759
0.196300 702
0.196500 532
0.196700 947
0.196800 791
0.197000 258
0.197600 775
0.197600 814
0.198200 68
0.198200 466
0.198800 467
0.198900 116
0.199000 982
0.199200 757
0.199300 741
0.199300 971
0.199500 578
0.199900 744
0.200000 160
0.200100 232
0.200100 926
0.200500 273
0.200600 680
0.200600 979
0.200700 785
0.200800 825
0.201000 285
0.201200 419
0.201300 655
0.201500 442
0.201800 84
0.202000 803
0.202100 228
0.202800 49
0.203000 974
0.203100 59
0.203100 212
0.203400 104
0.203500 805
0.203600 652
0.203900 895
0.204100 380
0.204300 842
0.204400 602
0.204700 562
0.204800 384
0.205100 155
0.205100 444
0.205100 731
0.205100 881
0.205200 310
0.205500 302
0.205800 523
0.205900 745
0.206100 195
0.206400 195
0.206400 301
0.206500 715
0.206500 742
0.206800 484
0.207100 338
0.207500 729
0.207600 988
0.207700 830
0.207800 152
0.207900 494
0.207900 751
0.208000 357
0.208100 745
0.208400 864
0.208700 154
0.209400 619
0.209500 914
0.209600 369
0.209700 554
0.209900 850
0.210000 614
0.210300 228
0.210400 755
0.210600 552
0.210700 0
0.210700 809
0.210700 931
0.210800 926
0.211000 772
0.211100 411
0.211100 718
0.211200 1
0.211200 999
0.211300 251
0.211300 607
0.211300 794
0.211400 228
0.211400 438
0.211400 471
0.211500 930
0.211600 136
0.211800 452
0.212300 80
0.212400 56
0.212400 422
0.212400 863
0.212400 897
0.212500 785
0.212500 813
0.212600 948
0.212900 658
0.213100 755
0.213200 359
0.213200 826
0.213700 387
0.213800 131
0.213900 189
0.214200 150
0.214200 959
0.214300 279
0.214300 343
0.214300 426
0.214500 273
0.214500 614
0.214900 35
0.215000 925
0.215100 462
0.215200 571
0.215300 856
0.215300 894
0.215400 185
0.215400 510
0.215600 366
0.216000 320
0.216300 796
0.216400 895
0.216500 355
0.216600 26
0.217100 675
0.217300 332
0.217500 276
0.217700 45
0.217800 852
0.218000 509
0.218200 168
0.218200 631
0.218300 84
0.218400 586
0.218400 770
0.218400 962
0.218500 163
0.219500 943
0.219700 356
0.219700 643
0.219700 986
0.220000 866
0.220100 656
0.220200 763
0.220600 810
0.220800 27
0.220900 188
0.221000 590
0.221300 651
0.221600 837
0.221800 385
0.221800 454
0.221900 865
0.222400 295
0.222500 39
0.222600 852
0.222900 406
0.223100 395
0.223100 624
0.223200 94
0.223600 352
0.223800 665
0.223900 955
0.224000 5
0.224000 757
0.224400 170
0.224400 752
0.224800 58
0.224900 524
0.224900 678
0.225600 802
0.225800 749
0.226100 288
0.226200 895
0.226300 761
0.226600 440
0.226700 406
0.226800 192
0.227000 267
0.227300 350
0.227300 580
0.227500 696
0.227700 860
0.228000 38
0.228100 67
0.228200 493
0.228400 51
0.228700 171
0.228800 34
0.228900 927
0.229400 565
0.229700 539
0.229900 155
0.230100 455
0.230100 729
0.230200 52
0.230700 190
0.231000 702
0.231100 10
0.231200 550
0.231200 856
0.231700 581
0.231800 456
0.232100 75
0.232600 498
0.232600 982
0.232800 472
0.233000 822
0.233100 931
0.233200 657
0.233300 196
0.233400 701
0.233500 55
0.234300 343
0.234300 853
0.234800 743
0.234900 660
0.235000 839
0.235000 935
0.235200 190
0.235300 816
0.236000 341
0.236200 176
0.236800 475
0.237300 552
0.237600 1
0.237900 146
0.238200 517
0.238300 528
0.238500 186
0.238500 412
0.238600 328
0.238600 580
0.238700 342
0.239000 878
0.239100 968
0.239500 716
0.239900 908
0.240100 872
0.240200 719
0.240300 143
0.241100 832
0.241400 626
0.241400 671
0.241800 429
0.241900 664
0.242900 29
0.242900 434
0.242900 812
0.243000 138
0.243000 672
0.243000 767
0.243100 18
0.243100 212
0.243200 791
0.243300 255
0.243700 120
0.243900 268
0.243900 455
0.244000 99
0.244000 196
0.244000 615
0.244100 96
0.244600 675
0.244600 862
0.244800 628
0.244900 207
0.244900 311
0.245000 423
0.246000 361
0.246600 241
0.246700 441
0.246800 168
0.246800 975
0.247000 79
0.247500 362
0.247900 864
0.248000 268
0.248000 864
0.248200 101
0.248600 124
0.249200 330
0.249600 659
0.249800 326
0.249900 113
0.249900 215
0.250000 535
0.250100 67
0.250300 406
0.250300 482
0.250400 135
0.250500 359
0.250600 827
0.250700 385
0.250900 929
0.251000 573
0.251100 58
0.251200 467
0.251500 189
0.251500 498
0.251900 367
0.251900 740
0.252100 475
0.252100 583
0.252100 840
0.252200 454
0.252400 13
0.252400 465
0.252600 489
0.252800 885
0.253000 287
0.253000 907
0.253300 431
0.253500 630
0.254100 89
0.254400 58
0.254700 774
0.254900 127
0.255500 301
0.255500 585
0.255900 934
0.256100 607
0.256100 867
0.256200 646
0.256500 770
0.256500 980
0.256600 442
0.256800 650
0.257100 316
0.257200 976
0.257500 21
0.258200 13
0.258300 22
0.258300 558
0.258400 986
0.258800 656
0.258900 447
0.259100 713
0.259400 562
0.259500 814
0.260000 112
0.260100 610
0.260300 797
0.260600 317
0.260900 560
0.261300 447
0.261500 957
0.261600 986
0.261700 38
0.261800 56
0.262000 461
0.262200 253
0.262400 718
0.263000 199
0.263000 606
0.263000 633
0.263200 293
0.263200 880
0.263300 5
0.263600 796
0.264000 268
0.264100 824
0.264200 884
0.264700 296
0.264800 703
0.265300 379
0.265300 614
0.265400 128
0.265500 331
0.265800 562
0.265900 151
0.266000 630
0.266100 864
0.266400 835
0.266700 152
0.267100 34
0.267100 420
0.267300 40
0.267400 867
0.267700 276
0.267700 876
0.267800 714
0.267900 132
0.268000 577
0.269400 117
0.269400 850
0.269600 243
0.270000 375
0.270000 955
0.270100 824
0.270200 728
0.270900 530
0.271000 258
0.271500 737
0.271900 901
0.272000 229
0.272100 536
0.272900 497
0.273000 702
0.273600 999
0.273700 378
0.273900 169
0.274000 863
0.274200 687
0.274500 590
0.274700 534
0.274700 753
0.274800 156
0.274900 697
0.275300 872
0.275500 724
0.275900 58
0.276100 879
0.276200 449
0.276300 105
0.276900 336
0.276900 377
0.277200 988
0.277400 46
0.277500 728
0.278100 630
0.278600 613
0.278900 608
0.279100 392
0.279200 763
0.279500 522
0.279900 195
0.280000 347
0.280600 318
0.280600 872
0.280700 956
0.280800 619
0.281300 644
0.281400 104
0.281500 670
0.282000 450
0.282100 552
0.282300 960
0.282500 426
0.283200 567
0.283600 652
0.284000 6
0.284000 707
0.284200 193
0.284200 352
0.284700 772
0.284900 108
0.285000 184
0.285100 325
0.285100 468
0.285200 390
0.285600 493
0.286100 372
0.286300 870
0.286600 364
0.287500 685
0.287500 686
0.287600 87
0.287700 438
0.287700 505
0.287800 888
0.288100 164
0.288100 201
0.288400 802
0.288600 862
0.288800 31
0.289100 159
0.289600 968
0.289700 293
0.289900 887
0.290100 163
0.290100 340
0.290300 679
0.290500 37
0.290600 201
0.290600 810
0.290900 933
0.291300 378
0.291600 174
0.292400 121
0.292500 667
0.292700 484
0.292700 776
0.292900 719
0.293100 975
0.293200 87
0.293300 356
0.293400 692
0.293700 782
0.294100 409
0.294400 956
0.294500 518
0.294500 580
0.294900 420
0.295000 550
0.295100 974
0.295300 896
0.295500 739
0.295500 964
0.295800 988
0.296100 558
0.296500 879
0.296600 764
0.297000 599
0.297000 996
0.297200 434
0.297200 457
0.297300 72
0.297400 19
0.297400 352
0.297500 124
0.297500 687
0.297700 523
0.298000 613
0.298200 597
0.298500 290
0.298500 738
0.298700 100
0.298800 695
0.299100 151
0.299400 640
0.299400 674
0.299900 471
0.300000 643
0.300100 915
0.300600 580
0.300800 947
0.300900 112
0.301100 573
0.301400 402
0.301400 712
0.302000 149
0.302500 523
0.302700 761
0.302900 934
0.303500 198
0.303700 950
0.304000 818
0.304200 150
0.304200 287
0.304300 292
0.304600 192
0.304700 584
0.305000 459
0.305300 543
0.305400 184
0.305400 498
0.305600 723
0.305700 696
0.306100 390
0.306400 384
0.306400 635
0.306600 959
0.306800 572
0.306900 87
0.307100 203
0.307100 742
0.307200 166
0.307200 287
0.307700 28
0.307900 856
0.307900 881
0.308000 31
0.308100 18
0.308100 996
0.308300 377
0.308300 637
0.308700 197
0.308800 487
0.309300 408
0.309500 62
0.309900 884
0.310100 830
0.310300 352
0.310300 728
0.310700 56
0.310700 775
0.310900 213
0.311200 948
0.311400 555
0.311500 384
0.311600 624
0.311900 667
0.312100 723
0.312400 281
0.312700 712
0.312800 715
0.312900 761
0.313200 13
0.313200 918
0.313600 851
0.314000 613
0.314100 945
0.314200 737
0.314200 964
0.314600 641
0.314900 115
0.315100 176
0.315100 739
0.315200 739
0.315300 531
0.315300 712
0.315700 205
0.315800 907
0.315900 584
0.315900 662
0.316000 378
0.316200 502
0.316500 198
0.316500 255
0.316600 318
0.316600 902
0.317200 251
0.317200 536
0.317300 215
0.317600 524
0.318400 566
0.318700 64
0.319300 628
0.319400 194
0.319600 113
0.319700 734
0.320200 989
0.320800 18
0.321000 506
0.321000 712
0.321200 990
0.321800 184
0.321900 101
0.321900 677
0.322000 174
0.322300 469
0.322700 713
0.322700 958
0.322900 108
0.322900 272
0.322900 614
0.323400 517
0.323400 800
0.323900 846
0.324600 981
0.325000 319
0.325200 290
0.325400 13
0.325500 114
0.326200 770
0.326400 425
0.326600 788
0.327400 354
0.327400 768
0.327700 368
0.327700 496
0.327800 15
0.327800 416
0.328000 465
0.328400 692
0.328500 401
0.328500 499
0.329100 211
0.329100 313
0.329400 661
0.329700 457
0.330300 21
0.330600 510
0.330800 65
0.330800 418
0.330900 376
0.331400 333
0.331600 254
0.332000 453
0.332000 862
0.332200 889
0.332400 260
0.332700 193
0.332700 229
0.332800 370
0.334100 731
0.334500 876
0.334500 942
0.334700 276
0.334900 558
0.334900 747
0.335100 319
0.335200 657
0.335200 810
0.335300 542
0.335300 883
0.335400 661
0.335500 712
0.335600 142
0.335700 173
0.335700 713
0.335800 697
0.335800 745
0.336100 837
0.336200 358
0.336200 582
0.336200 675
0.336200 814
0.336400 948
0.336500 397
0.336500 563
0.336600 967
0.336700 420
0.336900 190
0.337300 74
0.337700 578
0.337700 730
0.338300 797
0.338600 993
0.338700 448
0.338700 805
0.338900 59
0.338900 159
0.339300 874
0.339300 937
0.339500 464
0.339500 923
0.339700 885
0.339900 85
0.339900 485
0.340200 502
0.340200 631
0.340400 418
0.341000 920
0.341400 50
0.341500 471
0.341600 7
0.341700 743
0.341900 321
0.341900 358
0.341900 590
0.342000 399
0.342000 907
0.342200 299
0.342500 452
0.342500 657
0.342700 430
0.342700 961
0.343100 646
0.343500 330
0.344000 151
0.344200 686
0.344700 855
0.345000 657
0.345000 854
0.345100 389
0.345100 660
0.345300 653
0.345400 615
0.345600 687
0.345800 894
0.346000 770
0.346100 527
0.346500 64
0.346800 160
0.346800 659
0.346900 251
0.346900 593
0.346900 848
0.347100 500
0.347200 797
0.347500 121
0.347600 732
0.348000 382
0.348100 382
0.348300 813
0.348400 907
0.348600 3
0.348900 434
0.348900 557
0.349000 105
0.349000 141
0.349000 689
0.349400 676
0.349400 715
0.349400 761
0.349400 891
0.350000 912
0.350200 138
0.350300 64
0.350400 504
0.350600 86
0.350600 401
0.350900 450
0.350900 978
0.351200 421
0.351200 932
0.351300 679
0.351900 615
0.352100 147
0.352200 59
0.353400 462
0.353400 714
0.353600 240
0.353600 608
0.354200 906
0.354400 500
0.354700 486
0.355200 621
0.355500 456
0.355600 215
0.355700 34
0.356100 806
0.356300 953
0.356400 98
0.356500 520
0.357000 252
0.357000 572
0.357000 717
0.357100 58
0.357400 124
0.357400 215
0.357400 342
0.357700 252
0.358100 558
0.358200 372
0.358300 454
0.358300 712
0.358400 702
0.359100 90
0.359200 924
0.359700 866
0.360100 889
0.360200 955
0.360300 189
0.360500 769
0.360600 137
0.360700 441
0.360800 359
0.361100 480
0.361800 225
0.362100 884
0.362800 542
0.363400 663
0.363600 337
0.363600 736
0.364300 873
0.364400 105
0.364400 377
0.364600 288
0.364900 733
0.365100 496
0.365100 938
0.365500 75
0.365700 748
0.365700 993
0.365800 982
0.365900 228
0.365900 745
0.366100 171
0.366100 349
0.366200 770
0.366300 897
0.366400 585
0.366700 671
0.366800 715
0.367400 351
0.367500 404
0.367800 52
0.367900 446
0.368400 784
0.369000 503
0.369300 163
0.369600 307
0.369700 91
0.370500 404
0.370500 540
0.370600 450
0.370900 78
0.370900 199
0.370900 545
0.371000 950
0.371200 845
0.371400 174
0.371400 342
0.371400 744
0.371500 528
0.371500 894
0.371600 94
0.371700 312
0.371800 271
0.372400 886
0.372500 901
0.372800 162
0.372900 83
0.372900 994
0.373000 287
0.373300 32
0.373400 240
0.373600 783
0.373700 172
0.373700 292
0.374100 4
0.374200 726
0.374200 871
0.374500 196
0.374900 358
0.375000 515
0.375100 711
0.375400 604
0.375600 94
0.375700 27
0.375800 974
0.376000 715
0.376100 360
0.376200 13
0.376200 125
0.376300 898
0.377200 43
0.377400 3
0.377700 785
0.377800 444
0.377900 624
0.378000 282
0.378500 515
0.378600 33
0.378800 336
0.380100 196
0.380100 293
0.381000 926
0.381200 438
0.381700 288
0.381900 134
0.382100 207
0.382200 787
0.382400 15
0.382800 299
0.382900 215
0.382900 911
0.383000 525
0.383200 518
0.383900 215
0.384000 326
0.384200 345
0.384300 337
0.384300 472
0.384300 758
0.384800 197
0.384900 406
0.385700 779
0.385700 931
0.385800 215
0.385800 231
0.386000 791
0.386100 96
0.386200 649
0.386400 907
0.386500 658
0.386700 789
0.386800 158
0.386900 77
0.387300 116
0.387300 256
0.387300 357
0.387400 618
0.387500 154
0.387800 42
0.388200 575
0.388300 278
0.388300 999
0.388500 254
0.388600 214
0.389200 218
0.389300 652
0.389400 420
0.389600 892
0.389700 330
0.389800 125
0.389800 999
0.390000 134
0.390000 215
0.390300 640
0.390800 37
0.390800 948
0.390900 285
0.390900 905
0.390900 972
0.391000 727
0.391200 545
0.391200 911
0.391300 713
0.391500 630
0.391500 787
0.391600 291
0.391700 729
0.392400 150
0.393000 444
0.393500 876
0.393500 937
0.393800 494
0.394100 896
0.394300 611
0.394400 267
0.394500 117
0.394700 245
0.394700 383
0.395300 144
0.395300 581
0.395400 777
0.395900 467
0.395900 531
0.396100 375
0.396100 556
0.396600 22
0.396700 578
0.396900 166
0.397300 581
0.397500 2
0.397500 726
0.397700 793
0.397800 998
0.398100 925
0.398200 234
0.398300 291
0.398700 301
0.398900 657
0.398900 851
0.398900 952
0.399400 629
0.399400 984
0.399500 100
0.399500 366
0.399800 933
0.399900 2
0.399900 760
0.400200 626
0.400600 260
0.400700 20
0.401500 662
0.401900 170
0.401900 306
0.402000 575
0.402100 73
0.402400 979
0.403300 328
0.403400 392
0.403400 499
0.403600 476
0.404200 91
0.404300 226
0.404300 490
0.404400 153
0.404600 211
0.404600 523
0.404800 559
0.405200 90
0.405400 278
0.405700 511
0.405800 811
0.405800 839
0.405900 887
0.406200 727
0.406400 170
0.406600 443
0.406700 572
0.407200 784
0.407300 358
0.407300 839
0.407400 420
0.407600 522
0.407600 838
0.407900 495
0.408100 321
0.408600 163
0.408600 714
0.408900 439
0.408900 597
0.409500 205
0.409700 859
0.410000 484
0.410000 939
0.410500 40
0.410700 897
0.410800 66
0.410900 471
0.411200 169
0.411200 847
0.411400 409
0.411700 843
0.411800 604
0.411900 32
0.412400 735
0.412600 313
0.413400 823
0.413800 3
0.414000 237
0.414100 202
0.414300 679
0.414900 696
0.415100 938
0.415200 369
0.415300 572
0.415900 683
0.416000 324
0.416000 487
0.416000 570
0.416200 4
0.416200 355
0.416500 119
0.416500 734
0.416600 216
0.416900 944
0.417000 830
0.417200 797
0.417300 595
0.417300 995
0.418800 743
0.419100 210
0.419100 990
0.419400 958
0.419700 143
0.419900 992
0.420000 271
0.420100 395
0.420100 549
0.420100 854
0.420200 601
0.420300 93
0.420300 202
0.420600 117
0.420700 723
0.420900 568
0.421200 582
0.421300 349
0.421800 521
0.421800 840
0.422500 271
0.422700 451
0.422700 763
0.422900 276
0.423400 863
0.423800 368
0.423900 422
0.424200 921
0.424300 481
0.424700 409
0.424800 401
0.425400 762
0.425400 916
0.425900 957
0.426200 623
0.426300 663
0.426600 504
0.427100 447
0.427200 313
0.427400 602
0.427500 267
0.427700 677
0.427800 30
0.427800 329
0.428300 174
0.428300 633
0.428300 850
0.428500 617
0.428700 308
0.428900 550
0.429000 322
0.429100 997
0.429300 528
0.429500 810
0.429700 719
0.429800 755
0.430200 643
0.430400 737
0.431100 643
0.431500 430
0.431600 34
0.431600 50
0.431700 89
0.431900 103
0.432200 447
0.432200 585
0.432600 765
0.433100 433
0.433200 598
0.433500 576
0.433600 152
0.433800 366
0.434000 257
0.434000 360
0.434100 980
0.434700 687
0.434800 800
0.434900 463
0.435000 510
0.435300 650
0.435400 496
0.435500 87
0.435600 190
0.435600 818
0.435900 352
0.435900 604
0.436000 594
0.436100 655
0.436900 341
0.437100 84
0.437200 719
0.437400 742
0.437800 616
0.437800 966
0.438700 747
0.438700 973
0.439100 845
0.439300 54
0.439300 222
0.439600 661
0.439600 780
0.439800 145
0.439900 486
0.439900 647
0.440400 23
0.440500 104
0.441000 499
0.441000 739
0.441100 573
0.441100 723
0.441200 966
0.441800 786
0.442000 374
0.442200 622
0.442300 44
0.442300 822
0.442400 685
0.442800 58
0.442800 92
0.442800 494
0.443100 98
0.443100 233
0.443300 563
0.443400 860
0.443600 703
0.443600 714
0.443900 930
0.444300 403
0.444700 698
0.444900 478
0.444900 923
0.445000 206
0.445100 334
0.445100 502
0.445300 559
0.445400 311
0.445500 778
0.445600 742
0.445900 287
0.446100 910
0.446600 708
0.446700 180
0.446800 962
0.447000 278
0.447100 745
0.447300 841
0.447300 877
0.447500 148
0.447700 433
0.447900 891
0.448100 585
0.448200 995
0.448300 8
0.448300 467
0.448700 808
0.448800 991
0.448900 205
0.449500 524
0.449800 161
0.450200 395
0.451300 115
0.451600 570
0.451700 881
0.451900 700
0.451900 796
0.452000 153
0.452400 873
0.453200 941
0.453400 200
0.453400 519
0.453400 795
0.453700 997
0.453900 115
0.454100 672
0.454100 908
0.454200 387
0.455200 397
0.455900 279
0.456000 605
0.456100 237
0.456200 46
0.456400 867
0.456800 345
0.456900 987
0.457000 678
0.457100 518
0.457200 74
0.457200 945
0.458000 297
0.458000 965
0.458200 496
0.458400 120
0.458600 166
0.458800 9
0.458800 649
0.458800 688
0.458900 320
0.458900 640
0.458900 668
0.459000 646
0.459200 725
0.459400 841
0.459600 73
0.459700 195
0.459900 759
0.461000 104
0.461000 358
0.461200 256
0.461400 127
0.461400 382
0.461400 695
0.461500 170
0.461600 762
0.461600 981
0.461900 168
0.461900 931
0.462200 56
0.462200 818
0.462300 753
0.462500 516
0.462700 450
0.463000 740
0.463100 705
0.463400 573
0.463500 278
0.463500 363
0.463500 408
0.463800 298
0.464000 963
0.464300 54
0.464300 874
0.464300 876
0.464400 345
0.464700 438
0.465100 989
0.465200 41
0.465200 113
0.465300 575
0.465300 780
0.465800 34
0.465800 268
0.466200 730
0.466300 249
0.466400 415
0.466800 467
0.466800 491
0.467000 70
0.467200 153
0.467400 168
0.467500 667
0.467800 580
0.467800 751
0.468700 377
0.468900 877
0.469300 391
0.469300 739
0.469400 445
0.469600 134
0.470000 150
0.470000 988
0.470700 520
0.470800 127
0.470900 968
0.471000 159
0.471100 16
0.471200 330
0.471700 597
0.472100 399
0.472400 558
0.472400 976
0.472500 47
0.472800 751
0.472800 969
0.473200 967
0.473600 351
0.473800 395
0.474200 897
0.474500 999
0.474800 416
0.474900 573
0.475000 560
0.475500 302
0.475800 226
0.475900 788
0.476000 261
0.476900 91
0.476900 233
0.477000 328
0.477200 484
0.477300 325
0.477300 505
0.477600 557
0.477700 444
0.477800 256
0.477800 311
0.477900 205
0.477900 690
0.478000 910
0.478300 925
0.478400 321
0.478500 92
0.478700 218
0.478700 425
0.479000 169
0.479400 161
0.480100 341
0.480300 23
0.480300 866
0.480700 763
0.480700 976
0.480800 734
0.480900 837
0.481100 194
0.481100 895
0.481600 972
0.482600 628
0.483400 497
0.483700 118
0.483700 524
0.483700 841
0.484700 722
0.485000 121
0.485100 123
0.485300 685
0.485300 852
0.486500 182
0.486800 671
0.487100 966
0.487200 363
0.487300 620
0.487700 86
0.487700 560
0.488000 295
0.488400 318
0.488400 906
0.488600 163
0.488600 876
0.488700 382
0.489500 974
0.489800 441
0.490300 479
0.490700 389
0.490700 414
0.490900 4
0.490900 858
0.491300 464
0.491300 928
0.491500 105
0.491500 396
0.491900 185
0.492400 851
0.492600 150
0.492800 386
0.493800 595
0.494000 274
0.494100 859
0.494300 641
0.494500 438
0.494500 879
0.494600 220
0.494800 673
0.494900 442
0.495000 441
0.495200 834
0.495600 66
0.495600 410
0.495700 409
0.495800 231
0.495800 817
0.495900 186
0.496100 714
0.496700 75
0.497000 234
0.497100 236
0.497300 986
0.497500 68
0.497500 668
0.497800 349
0.497900 305
0.497900 414
0.498100 370
0.498700 281
0.499100 376
0.499200 73
0.499400 161
0.499500 21
0.499600 1
0.499700 781
0.499800 205
0.499900 326
0.500100 249
0.500200 584
0.501100 159
0.501100 876
0.501200 356
0.501400 44
0.501800 376
0.502100 421
0.502200 669
0.502500 454
0.502500 556
0.502500 598
0.502700 188
0.502700 591
0.503000 859
0.503200 429
0.503300 5
0.503300 634
0.503900 586
0.504200 67
0.504300 199
0.504700 546
0.504800 618
0.505700 91
0.505900 75
0.506000 879
0.506100 258
0.506600 569
0.506700 758
0.506900 754
0.507000 785
0.507200 267
0.508000 810
0.508300 910
0.508500 598
0.508700 383
0.509000 376
0.509500 707
0.509700 248
0.509800 355
0.509900 562
0.510000 297
0.510500 897
0.510800 847
0.511100 312
0.511100 378
0.511100 702
0.511300 597
0.511700 906
0.511800 954
0.512100 321
0.512100 600
0.512500 644
0.512800 4
0.512900 923
0.513100 619
0.513600 941
0.513800 201
0.514000 146
0.514000 838
0.514000 887
0.514400 399
0.514500 93
0.514500 177
0.514800 722
0.515900 684
0.516100 847
0.516400 106
0.516700 981
0.516900 577
0.517100 655
0.517100 913
0.517200 831
0.517300 573
0.517400 529
0.518200 769
0.518300 252
0.518300 936
0.518700 32
0.519000 613
0.519200 383
0.519300 949
0.520200 681
0.520300 209
0.520500 19
0.520800 107
0.520800 333
0.520800 510
0.520900 873
0.521000 192
0.521100 283
0.521600 53
0.521700 297
0.521800 98
0.521900 736
0.521900 785
0.522400 24
0.522400 37
0.522500 774
0.522500 889
0.522700 909
0.522800 185
0.523000 39
0.523000 643
0.523000 757
0.523000 966
0.523100 798
0.523200 294
0.523400 150
0.523500 884
0.523800 200
0.523800 224
0.523800 830
0.523900 937
0.524100 273
0.524200 159
0.524400 208
0.524700 987
0.524900 299
0.524900 530
0.525100 978
0.525300 422
0.525500 610
0.525500 858
0.525600 293
0.525600 885
0.525900 308
0.525900 336
0.525900 374
0.526100 471
0.526300 419
0.526400 236
0.526500 339
0.526500 656
0.526600 192
0.526600 635
0.527600 60
0.527600 822
0.528000 290
0.528000 609
0.528100 483
0.528300 436
0.528300 461
0.528600 551
0.528700 698
0.529000 576
0.529000 691
0.529100 428
0.529100 493
0.529700 951
0.530100 90
0.530300 609
0.530500 149
0.530500 422
0.530500 715
0.530800 602
0.531000 480
0.531100 73
0.531100 432
0.531300 81
0.531500 586
0.531700 533
0.531800 409
0.531800 606
0.532100 195
0.532100 413
0.532200 318
0.532400 288
0.532800 321
0.532900 386
0.532900 502
0.532900 937
0.533200 442
0.533500 340
0.534100 371
0.534300 509
0.534300 865
0.534400 101
0.534600 342
0.534600 538
0.534700 638
0.534800 987
0.534900 947
0.535000 325
0.535400 164
0.535500 943
0.535600 708
0.535800 973
0.535900 874
0.536100 558
0.536300 425
0.536700 610
0.537300 122
0.537600 930
0.537800 52
0.538100 201
0.538100 361
0.538200 757
0.538400 384
0.538500 9
0.538500 178
0.539000 12
0.539200 44
0.539300 123
0.539400 260
0.539600 537
0.539900 191
0.540100 224
0.540100 451
0.540300 509
0.540600 725
0.540700 768
0.540800 727
0.541100 365
0.541300 542
0.541400 165
0.541900 915
0.542000 569
0.542000 751
0.542200 680
0.542400 967
0.542600 382
0.542600 393
0.542600 781
0.542700 449
0.543200 497
0.543200 958
0.543300 536
0.543400 200
0.543500 937
0.543800 147
0.543900 245
0.544200 485
0.545600 748
0.545700 604
0.545900 941
0.546100 15
0.546300 765
0.546400 450
0.546700 482
0.546700 604
0.546800 775
0.546900 792
0.547500 144
0.547500 993
0.547600 836
0.547700 159
0.547900 162
0.548000 984
0.548100 241
0.548300 274
0.548400 378
0.548500 889
0.548800 563
0.548800 745
0.549000 839
0.549000 886
0.549100 881
0.549300 236
0.549500 97
0.549800 898
0.549900 634
0.550000 943
0.550300 829
0.550400 93
0.550600 261
0.550600 337
0.550700 876
0.550800 553
0.550800 780
0.551000 623
0.551400 202
0.552100 268
0.552400 515
0.552400 567
0.552500 997
0.553000 332
0.553200 844
0.553200 939
0.553400 69
0.553700 150
0.553700 475
0.553800 315
0.554100 572
0.554200 545
0.554400 996
0.554500 878
0.554600 295
0.555100 187
0.555200 272
0.555200 904
0.555800 299
0.555900 688
0.556000 364
0.556100 27
0.556200 466
0.556400 730
0.556500 382
0.556600 624
0.556900 761
0.557200 73
0.557400 41
0.557400 567
0.557500 437
0.557500 828
0.557500 922
0.557700 40
0.557900 702
0.558100 619
0.558300 482
0.558600 409
0.558600 741
0.558800 741
0.559300 701
0.559400 611
0.559600 575
0.559600 839
0.559700 685
0.560000 866
0.560200 816
0.560300 482
0.560400 308
0.560400 521
0.561300 776
0.561400 40
0.561400 549
0.561400 840
0.561600 882
0.561700 442
0.562100 6
0.562400 303
0.562400 741
0.562500 616
0.562700 312
0.562700 400
0.562800 475
0.562900 616
0.563100 895
0.563200 21
0.563200 576
0.563500 965
0.563600 910
0.563800 754
0.563900 166
0.564100 915
0.564200 729
0.564300 957
0.564400 305
0.564400 628
0.564900 305
0.565100 632
0.565600 161
0.565900 705
0.566000 178
0.566100 422
0.566200 332
0.566200 812
0.566300 277
0.566300 430
0.566300 453
0.566900 507
0.567300 285
0.568100 282
0.568100 716
0.568300 282
0.568500 490
0.568600 286
0.568700 762
0.568800 156
0.568800 281
0.568900 499
0.569300 53
0.570200 704
0.570300 533
0.570300 699
0.570300 743
0.570500 82
0.570500 638
0.570900 462
0.571000 960
0.571100 202
0.571200 130
0.571200 515
0.571300 122
0.571300 311
0.571600 660
0.571700 344
0.571700 713
0.572200 549
0.572500 75
0.572500 397
0.572600 222
0.572700 45
0.572700 283
0.572700 950
0.572800 287
0.573000 537
0.573400 270
0.573500 189
0.573500 532
0.573500 963
0.573900 457
0.574100 867
0.574200 489
0.574600 769
0.575000 762
0.575200 743
0.575300 679
0.575900 437
0.576800 500
0.576800 947
0.576900 624
0.577300 93
0.577800 770
0.578100 398
0.578100 463
0.578500 403
0.579100 169
0.579100 616
0.579300 198
0.579300 898
0.579300 928
0.579400 260
0.579700 589
0.580100 20
0.580300 948
0.580500 930
0.580700 779
0.581800 76
0.582000 753
0.582300 103
0.582400 462
0.582500 281
0.582600 410
0.582700 764
0.582700 974
0.583000 154
0.583300 386
0.583400 231
0.583600 394
0.583800 993
0.584100 381
0.584200 597
0.584200 849
0.584900 100
0.584900 625
0.585300 474
0.585800 411
0.586200 26
0.586200 606
0.586200 618
0.586400 38
0.586800 489
0.587200 158
0.587300 874
0.587400 935
0.587600 3
0.587800 956
0.588000 67
0.588800 557
0.588800 589
0.589100 146
0.589200 641
0.589400 742
0.589600 787
0.589700 82
0.589700 206
0.590600 469
0.591200 550
0.591600 187
0.591700 437
0.591900 105
0.592300 161
0.592400 492
0.592500 209
0.592600 304
0.593100 745
0.593900 463
0.594200 676
0.594200 965
0.594400 295
0.594400 904
0.594500 388
0.594700 259
0.595100 277
0.595200 705
0.595200 995
0.595500 89
0.595600 926
0.596100 655
0.596100 883
0.596100 945
0.596100 998
0.596300 573
0.596400 119
0.596500 120
0.596500 197
0.596500 453
0.596600 332
0.596600 994
0.597000 927
0.597700 240
0.597700 573
0.598100 915
0.598300 784
0.598500 790
0.598600 417
0.599100 212
0.599500 548
0.599900 686
0.599900 948
0.600500 381
0.600700 424
0.600800 24
0.600800 930
0.601000 990
0.601100 224
0.601200 737
0.601200 846
0.601500 807
0.601700 950
0.601800 640
0.602000 877
0.602500 135
0.602500 730
0.602700 885
0.602800 978
0.603000 569
0.603200 794
0.603400 277
0.603400 952
0.603800 873
0.603900 422
0.604000 324
0.604100 281
0.604400 998
0.604700 273
0.604900 190
0.604900 522
0.605200 440
0.605300 186
0.605500 814
0.605600 92
0.605600 204
0.605700 587
0.605900 612
0.606100 328
0.606300 674
0.606500 964
0.606600 992
0.606700 679
0.606800 520
0.606900 763
0.607000 90
0.607000 765
0.607100 462
0.607200 711
0.607300 693
0.607900 513
0.607900 737
0.608000 103
0.608000 906
0.608100 933
0.608200 148
0.608300 717
0.609000 840
0.609100 995
0.609200 889
0.609300 85
0.609300 636
0.609400 930
0.609500 30
0.609700 377
0.609700 683
0.609900 573
0.609900 716
0.610000 646
0.610100 140
0.610300 426
0.610600 747
0.610600 808
0.610800 81
0.611200 575
0.611400 712
0.611700 64
0.611800 206
0.611900 492
0.612100 779
0.612600 326
0.613000 632
0.613000 833
0.613200 684
0.613300 134
0.613900 118
0.613900 429
0.614500 656
0.614800 873
0.614900 524
0.615100 903
0.615400 457
0.615400 660
0.615400 821
0.615500 323
0.615600 542
0.615600 702
0.615700 188
0.615800 996
0.615900 428
0.615900 703
0.616000 328
0.616200 536
0.616200 956
0.616400 215
0.616400 772
0.616800 352
0.616800 383
0.617300 855
0.617400 377
0.617700 511
0.618100 328
0.618100 693
0.618200 203
0.618200 947
0.618300 697
0.618300 719
0.618600 114
0.618600 315
0.618600 620
0.618800 822
0.618900 216
0.619000 360
0.619100 888
0.619400 593
0.619400 803
0.619500 861
0.619600 896
0.619700 135
0.620000 623
0.620000 998
0.620100 183
0.620200 236
0.620300 746
0.620500 528
0.620700 670
0.620800 838
0.621300 579
0.621400 49
0.621500 825
0.621600 312
0.621600 767
0.621700 655
0.621900 489
0.622700 376
0.622800 492
0.623000 20
0.623100 0
0.623400 264
0.624300 756
0.624600 122
0.624700 132
0.624700 806
0.624800 973
0.626500 770
0.626600 258
0.626800 470
0.626900 324
0.627200 646
0.627200 983
0.627300 191
0.627300 547
0.627500 238
0.627500 621
0.627700 459
0.627700 583
0.627800 76
0.627900 576
0.628100 539
0.628100 860
0.628300 646
0.628300 784
0.628500 115
0.628700 927
0.628800 917
0.629100 152
0.629100 641
0.629300 289
0.629300 576
0.629700 127
0.629800 488
0.630200 575
0.630300 588
0.630600 177
0.631000 583
0.631400 927
0.631700 838
0.631800 585
0.631800 680
0.632100 613
0.632400 956
0.632500 459
0.632500 667
0.632600 503
0.632900 695
0.633100 260
0.633100 771
0.633700 546
0.633900 731
0.634100 904
0.634400 229
0.634500 409
0.634600 892
0.634700 406
0.635200 198
0.635300 28
0.635600 258
0.635700 356
0.635700 793
0.636000 982
0.636400 339
0.636700 493
0.636800 85
0.637300 84
0.637600 5
0.637800 216
0.638100 434
0.638200 157
0.638400 839
0.638700 534
0.638800 246
0.639100 89
0.639300 321
0.639300 581
0.639400 405
0.639600 162
0.639600 412
0.639800 151
0.640000 507
0.640000 785
0.640300 572
0.640500 113
0.640500 314
0.640500 914
0.640700 661
0.640700 824
0.640800 964
0.640900 392
0.641100 345
0.641800 172
0.641800 262
0.642000 251
0.642200 258
0.642300 785
0.642500 381
0.642700 926
0.643100 20
0.643300 366
0.643700 700
0.644000 106
0.644100 565
0.644400 64
0.645000 475
0.645400 21
0.645400 404
0.645600 856
0.645700 334
0.645700 424
0.646100 218
0.646200 270
0.646200 290
0.646200 670
0.646300 281
0.646300 376
0.646300 626
0.646400 190
0.646600 87
0.646900 290
0.647000 542
0.647000 559
0.647300 623
0.647400 303
0.648300 111
0.648300 627
0.649400 236
0.649800 132
0.649800 626
0.649900 495
0.649900 551
0.650600 656
0.650900 363
0.651000 839
0.651300 540
0.651300 666
0.651500 581
0.651600 900
0.652400 543
0.652400 754
0.652500 121
0.652700 701
0.652700 838
0.653000 464
0.653000 518
0.653300 56
0.653600 921
0.654000 908
0.654400 625
0.655300 897
0.655500 209
0.655600 928
0.655800 862
0.656200 999
0.656400 766
0.656500 710
0.656500 713
0.656600 186
0.656800 585
0.657100 153
0.657200 541
0.657200 835
0.657400 414
0.657500 592
0.657600 97
0.657600 920
0.658100 889
0.658300 110
0.658400 788
0.658600 104
0.658700 397
0.659600 714
0.659700 657
0.659800 181
0.659900 2
0.659900 683
0.659900 844
0.659900 995
0.660000 397
0.660100 253
0.661000 386
0.661300 106
0.662000 385
0.662100 25
0.662100 33
0.662200 655
0.662600 26
0.662600 994
0.662700 255
0.663000 557
0.663500 457
0.663600 484
0.663800 984
0.664300 84
0.665000 97
0.665500 378
0.665600 696
0.665600 887
0.665700 103
0.665800 59
0.665800 186
0.666100 922
0.666400 409
0.666600 929
0.667000 341
0.667600 866
0.667700 275
0.668100 617
0.668200 312
0.668200 575
0.668200 934
0.668400 83
0.668500 719
0.668500 985
0.668700 307
0.668700 444
0.668800 100
0.669100 577
0.669300 837
0.669600 463
0.669900 226
0.669900 695
0.670300 928
0.670400 59
0.671100 395
0.671200 527
0.671200 571
0.671300 35
0.671300 320
0.671400 678
0.671400 845
0.671500 131
0.671600 570
0.671800 167
0.671900 794
0.672400 54
0.672500 487
0.672500 506
0.672800 293
0.673000 113
0.673300 428
0.673500 213
0.673600 577
0.673700 416
0.673800 503
0.673800 689
0.674000 464
0.674400 144
0.674700 513
0.674900 500
0.675000 38
0.675100 714
0.675300 384
0.675600 407
0.675700 370
0.676300 32
0.676300 400
0.676300 404
0.676300 452
0.676400 159
0.676500 448
0.676600 248
0.676600 721
0.677200 433
0.677300 415
0.677600 858
0.677700 109
0.677700 883
0.677800 800
0.677900 592
0.678200 17
0.679300 508
0.679500 769
0.680000 103
0.680200 332
0.680900 452
0.681000 865
0.681100 137
0.681200 790
0.681300 399
0.681300 849
0.681400 928
0.681500 507
0.681500 709
0.681800 226
0.681800 738
0.682500 52
0.682800 124
0.683000 20
0.683000 68
0.683100 223
0.683100 580
0.683300 711
0.683500 631
0.683700 179
0.683800 601
0.683900 446
0.684000 903
0.684100 569
0.684700 121
0.684800 573
0.685100 43
0.685100 465
0.685400 601
0.685500 56
0.685700 466
0.685700 598
0.685700 936
0.685900 218
0.686300 712
0.686400 225
0.686400 246
0.686500 409
0.686800 970
0.687500 646
0.687500 955
0.687800 26
0.688400 750
0.688600 555
0.688800 984
0.689400 287
0.689500 449
0.689900 787
0.690100 260
0.690200 950
0.690300 799
0.690300 918
0.690600 361
0.691000 192
0.691000 257
0.691200 370
0.691300 508
0.691500 942
0.691600 379
0.691600 850
0.691700 293
0.692100 150
0.692200 306
0.693300 880
0.693400 459
0.693600 122
0.693700 754
0.693700 849
0.694000 277
0.694100 385
0.694100 777
0.694500 483
0.694700 773
0.694700 780
0.695100 258
0.695200 572
0.695200 634
0.695200 790
0.695400 891
0.695500 898
0.695600 150
0.695700 671
0.696000 236
0.696200 881
0.696300 203
0.696400 612
0.696600 429
0.696700 663
0.696700 974
0.696900 891
0.697000 283
0.697100 771
0.697200 886
0.697500 889
0.697800 965
0.697900 713
0.698500 210
0.698700 509
0.699000 774
0.699200 6
0.699200 141
0.699200 188
0.699600 131
0.699800 719
0.699900 821
0.700400 616
0.700800 908
0.701500 58
0.701700 957
0.702100 819
0.702200 997
0.702600 165
0.702800 127
0.703000 975
0.703200 792
0.703300 32
0.703300 805
0.703700 317
0.704500 272
0.704800 198
0.704900 49
0.704900 397
0.705000 433
0.705400 153
0.705500 615
0.705500 711
0.705600 199
0.706200 153
0.706400 120
0.706400 441
0.706500 339
0.706500 689
0.706800 262
0.707400 487
0.707500 949
0.707900 356
0.707900 638
0.708200 729
0.708500 168
0.708600 60
0.708700 686
0.709600 48
0.709800 417
0.709900 824
0.709900 850
0.710000 718
0.710000 861
0.710200 428
0.710200 432
0.710300 449
0.710400 823
0.710500 558
0.711100 302
0.711200 989
0.711300 631
0.712100 896
0.712200 766
0.712400 112
0.713100 560
0.713600 820
0.713800 288
0.713900 212
0.714300 89
0.714900 397
0.715400 438
0.715600 594
0.715800 595
0.716000 1
0.716000 783
0.716100 291
0.716300 917
0.716300 935
0.716500 16
0.716600 602
0.717000 84
0.717000 909
0.717100 655
0.717600 114
0.717600 170
0.717600 930
0.717900 664
0.718000 715
0.718100 813
0.718300 56
0.718500 897
0.718900 137
0.718900 868
0.719200 111
0.719200 545
0.719800 517
0.719900 105
0.720000 161
0.720000 371
0.720200 853
0.720300 825
0.720900 500
0.720900 871
0.721000 344
0.721100 107
0.721400 188
0.721500 596
0.722500 127
0.722500 585
0.722700 308
0.722800 647
0.722800 779
0.722900 348
0.723300 370
0.723400 260
0.723400 339
0.724100 113
0.724100 189
0.724200 550
0.724200 874
0.724400 620
0.724500 736
0.724700 400
0.724800 211
0.725000 311
0.725200 549
0.725600 852
0.725900 875
0.726300 87
0.726400 292
0.726500 836
0.726600 788
0.726800 678
0.727000 268
0.727100 262
0.727700 345
0.727900 120
0.727900 779
0.728000 217
0.728200 672
0.728500 739
0.728800 806
0.729000 66
0.729700 510
0.729700 757
0.730300 579
0.730500 350
0.730700 466
0.730800 126
0.731100 621
0.731200 147
0.731400 397
0.731700 41
0.731800 93
0.731900 112
0.731900 833
0.732000 383
0.732100 868
0.732200 125
0.732200 376
0.732400 531
0.732500 737
0.732900 369
0.733000 771
0.733100 533
0.733100 989
0.733700 521
0.734600 74
0.735100 234
0.735100 264
0.735200 165
0.735300 104
0.735400 91
0.735400 197
0.736000 724
0.736100 912
0.736500 52
0.736700 534
0.736900 564
0.737600 357
0.738000 834
0.738100 839
0.738300 679
0.738600 62
0.738800 750
0.739300 110
0.739300 268
0.739700 726
0.739900 694
0.740300 597
0.740500 345
0.740700 248
0.740800 868
0.741000 222
0.741100 344
0.741100 464
0.741500 698
0.741700 751
0.741800 883
0.741900 198
0.742200 702
0.742300 255
0.742300 708
0.742400 287
0.742400 779
0.742500 336
0.742700 267
0.742700 368
0.742700 763
0.743400 306
0.743500 864
0.743800 682
0.744000 678
0.744100 62
0.744800 294
0.745100 16
0.745300 745
0.745700 346
0.746000 149
0.746100 54
0.746100 952
0.746200 676
0.746300 327
0.746600 35
0.746700 2
0.746700 316
0.747000 373
0.747000 663
0.747200 399
0.747400 378
0.747400 480
0.747500 817
0.747600 113
0.748000 25
0.748000 234
0.748000 723
0.748100 542
0.748200 318
0.748300 145
0.748500 829
0.748800 857
0.749000 87
0.749200 900
0.749300 377
0.749400 547
0.749500 257
0.749700 815
0.750300 105
0.750600 881
0.750800 478
0.750800 776
0.751100 819
0.751200 789
0.751300 566
0.751300 786
0.751800 478
0.752500 58
0.752700 908
0.752700 925
0.752800 530
0.753000 600
0.753300 282
0.753400 505
0.753900 61
0.753900 767
0.754100 567
0.754100 758
0.754100 881
0.754200 63
0.754300 359
0.754300 514
0.754400 254
0.754600 119
0.754700 346
0.754800 114
0.754900 322
0.755300 75
0.755500 838
0.755600 28
0.755800 138
0.756000 745
0.756100 378
0.756100 503
0.756200 450
0.756200 913
0.756700 724
0.756800 251
0.756800 677
0.756900 806
0.757400 77
0.757600 369
0.757700 479
0.757700 565
0.758500 795
0.758500 936
0.758600 79
0.758600 421
0.758600 506
0.758800 616
0.759200 789
0.759600 222
0.759900 504
0.760100 411
0.760100 926
0.760200 166
0.760300 533
0.760600 49
0.760700 1
0.761200 398
0.761200 655
0.761600 820
0.761700 305
0.762200 32
0.762200 353
0.762300 257
0.762300 260
0.762300 966
0.762400 232
0.762600 655
0.762700 590
0.762800 268
0.762900 704
0.763200 83
0.763300 474
0.763700 668
0.763900 26
0.763900 699
0.764600 526
0.764600 554
0.764700 453
0.764800 505
0.764800 605
0.764900 362
0.764900 413
0.765000 232
0.765000 714
0.765200 674
0.765300 710
0.765700 18
0.765700 378
0.765800 887
0.766200 130
0.766400 23
0.766500 259
0.766500 504
0.766900 489
0.767400 85
0.767400 686
0.767800 512
0.767800 687
0.768000 412
0.768300 260
0.768600 473
0.769300 258
0.769800 210
0.770100 207
0.770200 54
0.770300 503
0.770700 347
0.770700 826
0.771100 732
0.771600 212
0.771600 498
0.771900 404
0.771900 887
0.772300 44
0.772700 62
0.772800 874
0.773200 130
0.773400 57
0.773700 705
0.774100 337
0.774200 436
0.774200 943
0.774300 454
0.774400 41
0.774500 923
0.774600 659
0.774800 359
0.775000 668
0.775200 834
0.775500 657
0.775700 81
0.775800 812
0.776100 32
0.776100 284
0.776200 401
0.776900 933
0.777200 46
0.777200 754
0.777700 331
0.778000 909
0.778100 476
0.778600 32
0.778600 389
0.779300 966
0.779400 538
0.779400 603
0.779500 303
0.779600 189
0.779700 891
0.779900 528
0.780000 392
0.780300 410
0.780400 116
0.780500 734
0.780500 853
0.780700 663
0.781400 419
0.781400 742
0.781700 474
0.781800 6
0.781800 108
0.781800 539
0.782000 185
0.782000 706
0.782000 885
0.782200 98
0.782300 198
0.782300 580
0.782300 841
0.782400 137
0.782500 615
0.782700 892
0.782700 967
0.782800 348
0.782900 482
0.783200 282
0.783500 522
0.783600 584
0.783900 484
0.784300 343
0.784500 630
0.785000 907
0.785200 643
0.785300 725
0.785500 493
0.785600 968
0.785700 27
0.785900 484
0.786200 534
0.786500 167
0.786500 725
0.786600 633
0.786800 148
0.786800 671
0.786800 840
0.787500 879
0.787900 818
0.788100 658
0.788200 544
0.788300 252
0.788300 467
0.788400 558
0.788400 988
0.788700 0
0.788700 308
0.788900 203
0.789000 941
0.789200 75
0.789300 875
0.789500 50
0.789600 613
0.789700 141
0.789700 790
0.789800 602
0.790200 304
0.790400 681
0.790600 219
0.790700 265
0.790900 158
0.790900 696
0.791000 791
0.791100 658
0.791200 336
0.791300 256
0.791300 525
0.791300 562
0.791300 882
0.791400 825
0.791800 938
0.791900 410
0.792600 246
0.792700 270
0.792800 393
0.792900 943
0.793000 825
0.793700 897
0.794000 149
0.794000 310
0.794500 484
0.794500 542
0.794600 741
0.794700 284
0.794900 536
0.795000 719
0.795100 87
0.795100 723
0.795300 525
0.795600 851
0.796100 795
0.796600 196
0.796900 141
0.796900 209
0.797200 393
0.797300 323
0.797400 989
0.797500 554
0.797600 422
0.797700 472
0.797900 85
0.797900 853
0.798200 222
0.798600 789
0.799200 593
0.799500 505
0.799600 265
0.799600 292
0.799900 362
0.799900 898
0.800300 633
0.800400 368
0.800500 466
0.800500 941
0.800700 919
0.800800 225
0.800900 684
0.801200 37
0.801300 770
0.801600 434
0.801600 454
0.801700 569
0.801800 447
0.801800 921
0.802100 405
0.802200 463
0.802200 946
0.802700 798
0.803000 733
0.803200 296
0.803300 718
0.803400 150
0.803400 301
0.803400 706
0.803500 36
0.804100 90
0.804200 252
0.804300 109
0.804300 838
0.804500 404
0.804500 427
0.804600 744
0.805600 39
0.805900 573
0.806000 185
0.806200 191
0.806700 313
0.806900 279
0.806900 636
0.807000 413
0.807600 651
0.807600 799
0.807900 6
0.807900 471
0.808100 411
0.808200 982
0.808300 686
0.808400 586
0.808700 552
0.808800 703
0.808900 254
0.809000 0
0.809500 399
0.809500 716
0.809700 440
0.810000 622
0.810600 308
0.810600 320
0.810800 843
0.810900 798
0.811100 415
0.811200 628
0.812200 121
0.812200 428
0.812600 118
0.812600 228
0.812700 905
0.813500 993
0.813900 549
0.814000 739
0.814000 944
0.814600 604
0.814900 486
0.815000 772
0.815400 976
0.815600 114
0.815600 755
0.815600 874
0.815700 439
0.815800 749
0.815900 315
0.816200 785
0.816200 878
0.816400 846
0.817600 440
0.817800 631
0.817900 136
0.818300 882
0.818900 638
0.818900 714
0.819000 594
0.819000 881
0.819300 973
0.819500 25
0.819600 519
0.819700 710
0.819900 459
0.820200 468
0.820400 713
0.820400 925
0.820500 65
0.820900 56
0.821400 824
0.821500 632
0.822100 519
0.822100 891
0.822300 755
0.822300 787
0.822400 848
0.822700 63
0.822800 802
0.823300 914
0.823500 987
0.823800 16
0.824100 47
0.824300 519
0.824300 696
0.824400 466
0.824500 258
0.824500 679
0.824900 12
0.824900 297
0.825200 973
0.825200 991
0.825300 44
0.825500 588
0.825600 473
0.825700 481
0.826500 326
0.827000 488
0.827100 519
0.827200 558
0.827300 972
0.827400 634
0.827500 945
0.827600 930
0.827700 319
0.827700 916
0.827900 529
0.827900 939
0.828300 65
0.828300 304
0.828400 149
0.828600 911
0.829100 863
0.829300 598
0.829300 660
0.829900 887
0.830100 394
0.830400 166
0.830400 762
0.830500 851
0.830700 800
0.830800 33
0.830900 57
0.830900 148
0.831200 481
0.831200 779
0.831400 29
0.831400 684
0.831400 887
0.831500 105
0.831500 818
0.831500 908
0.831700 901
0.831800 431
0.832500 30
0.832700 872
0.832800 743
0.833000 587
0.833000 599
0.833500 332
0.833500 587
0.833500 724
0.833700 612
0.833800 510
0.833800 915
0.834100 187
0.834100 936
0.834300 182
0.835000 443
0.835000 760
0.835100 814
0.835600 266
0.835800 5
0.836400 432
0.836500 767
0.836600 577
0.836700 156
0.836900 786
0.837100 10
0.837200 835
0.837400 380
0.837500 943
0.837700 620
0.838000 790
0.838800 94
0.838900 678
0.839000 262
0.839000 986
0.839100 734
0.839300 538
0.839700 908
0.839900 921
0.840700 559
0.840900 916
0.841100 345
0.841200 708
0.841400 204
0.841400 283
0.841700 490
0.841800 544
0.842200 141
0.842500 202
0.842700 320
0.843300 105
0.843500 273
0.843700 348
0.843800 255
0.844000 439
0.844100 437
0.844200 81
0.844400 425
0.844400 541
0.844400 897
0.844700 234
0.845100 546
0.845300 342
0.845500 132
0.845500 735
0.845700 222
0.845700 278
0.845900 76
0.846200 472
0.846200 915
0.846900 506
0.846900 665
0.847200 554
0.847500 749
0.847800 291
0.848100 905
0.848200 332
0.848400 504
0.848600 608
0.849100 611
0.849100 838
0.849100 953
0.849700 730
0.849900 815
0.850100 833
0.850300 244
0.850500 479
0.850600 439
0.850900 443
0.851500 358
0.851500 903
0.851600 927
0.851800 485
0.852000 159
0.852000 249
0.852000 308
0.852400 219
0.852500 221
0.852500 720
0.852600 377
0.852800 735
0.852900 518
0.853000 88
0.853000 589
0.853200 551
0.853200 798
0.853500 68
0.853700 227
0.853800 141
0.854100 467
0.854200 383
0.854300 64
0.854300 760
0.854500 36
0.854700 850
0.854800 907
0.855800 676
0.856500 108
0.856500 359
0.856600 90
0.856600 95
0.857000 232
0.857300 872
0.857500 113
0.857600 777
0.857700 654
0.857700 724
0.857800 789
0.858000 833
0.858100 926
0.858400 547
0.859200 159
0.859200 902
0.859400 409
0.859500 89
0.859500 437
0.859900 254
0.860000 450
0.860000 606
0.860800 961
0.861700 134
0.862300 576
0.862500 619
0.862800 757
0.864200 897
0.864200 956
0.864800 658
0.864900 510
0.864900 680
0.865300 659
0.866000 962
0.866200 409
0.866400 775
0.866900 724
0.867000 509
0.867000 942
0.867100 328
0.867200 712
0.867400 238
0.867600 300
0.867700 81
0.867800 549
0.867900 394
0.868100 938
0.868500 108
0.868500 180
0.868600 232
0.868700 582
0.868700 892
0.868800 233
0.869000 139
0.869100 585
0.869200 193
0.869300 161
0.869400 104
0.869400 196
0.869700 955
0.869900 381
0.870100 184
0.870100 968
0.870300 967
0.870500 51
0.870600 67
0.871400 441
0.871400 895
0.871500 633
0.871800 352
0.871800 931
0.872100 855
0.872200 893
0.872700 348
0.872800 494
0.872900 984
0.873100 268
0.873300 887
0.873900 80
0.873900 512
0.874200 713
0.874200 999
0.874300 3
0.874600 317
0.874600 583
0.874900 774
0.875100 423
0.875700 361
0.875800 955
0.876700 105
0.876700 532
0.877100 80
0.877200 976
0.877800 407
0.878400 725
0.878400 885
0.878500 136
0.879500 720
0.879600 146
0.879800 716
0.879900 53
0.879900 789
0.880100 233
0.880100 274
0.880200 156
0.880300 481
0.880300 660
0.880400 112
0.880500 375
0.880900 108
0.881100 626
0.881300 663
0.881400 169
0.881600 63
0.881900 535
0.882100 182
0.882200 120
0.882200 306
0.882300 382
0.882800 437
0.882800 586
0.883000 209
0.883200 189
0.883400 341
0.883500 879
0.883600 280
0.883800 758
0.883800 881
0.883900 83
0.884000 101
0.884000 947
0.884100 997
0.884200 312
0.884700 825
0.884800 678
0.884900 141
0.884900 793
0.884900 906
0.885000 148
0.885200 716
0.885800 801
0.886000 176
0.886600 142
0.886600 484
0.887400 258
0.887500 954
0.887900 59
0.887900 454
0.888200 880
0.888400 509
0.888700 143
0.888700 459
0.888900 176
0.889100 30
0.889100 745
0.889400 564
0.889600 355
0.889600 728
0.889900 436
0.890300 774
0.891100 64
0.891200 299
0.891200 581
0.891200 815
0.891300 657
0.891400 184
0.891600 532
0.891600 676
0.891800 452
0.891800 914
0.891900 37
0.891900 138
0.892500 789
0.892600 395
0.892600 626
0.892600 810
0.892700 635
0.892800 846
0.893000 304
0.893700 242
0.893900 657
0.894000 49
0.894000 600
0.894500 282
0.894500 546
0.894500 768
0.894600 581
0.895000 827
0.895100 379
0.895200 256
0.895700 445
0.895900 101
0.896100 645
0.896300 419
0.896600 844
0.896900 312
0.897000 333
0.897200 252
0.897300 868
0.897400 433
0.897600 127
0.897700 381
0.897700 947
0.898400 841
0.898700 170
0.898800 78
0.898800 648
0.898800 863
0.899000 639
0.899100 40
0.899100 326
0.899400 17
0.899400 156
0.899400 623
0.899500 362
0.899500 483
0.899500 820
0.900100 586
0.900500 993
0.900600 101
0.900800 239
0.900800 310
0.900900 201
0.900900 813
0.901400 476
0.901700 779
0.902000 671
0.902000 757
0.902200 464
0.902400 109
0.902400 566
0.902400 672
0.902800 42
0.903100 390
0.903300 305
0.903300 489
0.903500 94
0.903700 887
0.903900 627
0.904100 581
0.904200 25
0.904300 527
0.904500 324
0.904700 88
0.905200 834
0.905500 220
0.905800 650
0.905900 282
0.906000 288
0.906100 247
0.906500 367
0.906700 191
0.906900 273
0.907100 884
0.907300 602
0.907500 651
0.907600 116
0.907700 675
0.907700 779
0.907900 3
0.908000 451
0.908100 249
0.908200 932
0.908300 621
0.908800 352
0.908900 513
0.908900 881
0.909000 713
0.909100 579
0.909100 612
0.909200 47
0.909200 697
0.909200 841
0.909300 482
0.909400 127
0.909500 374
0.909500 705
0.909600 340
0.909700 6
0.909900 651
0.910200 97
0.910200 702
0.910600 344
0.910700 881
0.910800 572
0.911000 790
0.911100 177
0.911100 675
0.911500 254
0.911500 287
0.911500 613
0.911500 778
0.911600 536
0.911700 378
0.911900 598
0.912000 687
0.912400 682
0.912400 874
0.912700 628
0.912700 683
0.912800 373
0.912900 242
0.913000 764
0.913400 148
0.913500 188
0.913600 495
0.913800 481
0.913900 493
0.914300 179
0.914400 393
0.914500 822
0.914800 106
0.914800 369
0.915000 437
0.915000 677
0.915500 930
0.915600 912
0.916000 510
0.916100 833
0.916200 571
0.916500 440
0.916500 803
0.916800 885
0.917100 350
0.917300 972
0.917700 633
0.918100 180
0.918100 643
0.918200 714
0.918300 174
0.918700 350
0.918700 665
0.918800 66
0.919000 488
0.919100 85
0.919300 36
0.919400 283
0.919600 499
0.919900 400
0.920400 186
0.920400 334
0.920700 193
0.920700 500
0.920800 297
0.921100 102
0.921400 697
0.921500 795
0.921600 964
0.921900 86
0.922100 66
0.922200 600
0.922200 683
0.922200 700
0.922500 87
0.922500 664
0.922600 274
0.922600 376
0.922800 891
0.923300 819
0.923500 749
0.923700 295
0.923800 429
0.923800 457
0.923900 27
0.923900 303
0.923900 731
0.924200 865
0.924400 343
0.924400 680
0.924500 812
0.924700 47
0.924700 285
0.924800 666
0.924800 930
0.924900 22
0.925100 284
0.925100 623
0.925200 354
0.925700 176
0.925900 498
0.925900 656
0.926300 283
0.926300 414
0.926800 175
0.926900 482
0.926900 647
0.927300 724
0.927700 131
0.927800 300
0.927800 909
0.927900 239
0.928000 641
0.928000 773
0.928100 629
0.928100 830
0.928200 530
0.928200 853
0.928600 291
0.928800 411
0.928800 886
0.929200 198
0.929300 35
0.929800 381
0.929900 269
0.929900 367
0.929900 644
0.930100 331
0.930100 981
0.930200 189
0.930300 909
0.930500 215
0.930600 687
0.931300 301
0.931400 477
0.931600 322
0.931900 325
0.932100 470
0.932100 496
0.932200 686
0.932500 50
0.932800 215
0.932800 402
0.932800 541
0.932900 838
0.933000 771
0.933200 714
0.933200 848
0.933500 373
0.933700 749
0.934600 4
0.934600 362
0.934700 223
0.934700 974
0.935100 171
0.935100 618
0.936700 500
0.936700 613
0.936900 925
0.937000 602
0.937200 853
0.937300 662
0.937700 18
0.938500 266
0.938500 654
0.939000 90
0.939100 82
0.939500 980
0.939900 321
0.940100 359
0.940100 444
0.940400 394
0.940500 457
0.940600 152
0.940600 528
0.940700 159
0.940700 178
0.940900 431
0.940900 482
0.940900 592
0.941200 789
0.941600 65
0.941700 735
0.941800 333
0.942200 108
0.942600 491
0.942700 416
0.943600 350
0.943700 953
0.943800 683
0.944000 25
0.944400 386
0.944700 43
0.944900 778
0.945100 641
0.945300 156
0.945800 838
0.946100 331
0.946400 618
0.946800 629
0.947000 674
0.947100 403
0.947100 477
0.947700 284
0.947900 259
0.947900 684
0.948100 763
0.948200 242
0.948200 683
0.948200 999
0.948300 975
0.948700 500
0.948700 908
0.948900 269
0.948900 468
0.948900 994
0.949000 46
0.949400 346
0.949600 457
0.949800 580
0.950000 380
0.950000 769
0.950100 369
0.950300 720
0.950800 583
0.950900 3
0.951100 38
0.951700 364
0.951800 151
0.952100 355
0.952300 259
0.953300 154
0.953300 523
0.953400 29
0.953400 480
0.954000 581
0.954000 611
0.954600 387
0.954900 876
0.955200 622
0.955200 627
0.955200 983
0.955400 713
0.955600 25
0.955700 408
0.955800 844
0.956200 187
0.956300 425
0.956300 464
0.956300 637
0.957100 746
0.957200 531
0.957300 87
0.957500 883
0.958400 150
0.958600 221
0.958700 574
0.959100 278
0.959100 547
0.959300 172
0.959300 338
0.959400 452
0.959500 329
0.959700 828
0.959700 833
0.959700 858
0.959800 76
0.959900 282
0.960000 664
0.960100 676
0.960200 230
0.960400 852
0.960600 457
0.960700 817
0.960800 709
0.960800 721
0.960800 930
0.961000 310
0.961200 814
0.961500 625
0.961700 837
0.961800 378
0.961800 594
0.961900 436
0.962000 497
0.962100 922
0.962400 795
0.962700 296
0.963300 631
0.963600 895
0.963800 2
0.963800 301
0.964500 340
0.964700 107
0.965000 604
0.965100 428
0.965100 442
0.965300 946
0.965600 228
0.965600 661
0.965700 280
0.965700 454
0.965900 868
0.966300 351
0.966300 608
0.966400 233
0.966400 236
0.966500 354
0.966700 463
0.966800 585
0.967100 11
0.967400 250
0.967600 810
0.967800 147
0.967800 163
0.967800 191
0.967900 323
0.968200 328
0.968200 710
0.968300 237
0.968400 99
0.968700 662
0.968800 418
0.969000 838
0.969300 73
0.969400 288
0.969400 553
0.969700 960
0.969900 70
0.970000 848
0.970300 102
0.970400 491
0.970500 402
0.970800 240
0.971000 216
0.971200 811
0.971400 6
0.971400 195
0.971400 800
0.971500 988
0.971800 264
0.971800 361
0.972800 800
0.972900 616
0.973000 786
0.973700 765
0.973900 603
0.973900 858
0.973900 905
0.974400 146
0.974400 212
0.974400 443
0.974600 118
0.974800 470
0.974900 245
0.975000 744
0.975300 525
0.975400 859
0.975500 454
0.976000 997
0.976900 937
0.977000 336
0.977100 832
0.977600 432
0.977800 671
0.977900 626
0.978100 909
0.978200 926
0.978500 184
0.978600 114
0.978800 854
0.979400 347
0.979600 127
0.979800 9
0.980100 63
0.980300 280
0.980600 649
0.980800 910
0.981000 712
0.981100 501
0.981200 125
0.981200 285
0.981400 897
0.981700 629
0.981800 24
0.981800 190
0.982000 84
0.982200 694
0.982300 397
0.982600 820
0.982800 124
0.983300 601
0.983300 624
0.983400 171
0.983400 739
0.983900 341
0.983900 918
0.984000 37
0.984000 155
0.984100 917
0.984200 737
0.985700 621
0.985700 889
0.985800 108
0.985900 775
0.986000 452
0.986000 899
0.986200 804
0.986900 448
0.987500 321
0.988400 784
0.988500 99
0.988600 590
0.989000 831
0.989100 127
0.989100 919
0.989200 927
0.989300 295
0.989300 333
0.989300 617
0.989600 473
0.989700 129
0.989900 137
0.990200 430
0.990300 66
0.990300 477
0.990500 328
0.990500 525
0.990800 839
0.990900 908
0.991300 449
0.991500 827
0.991700 373
0.992000 918
0.992200 383
0.992300 707
0.992500 554
0.992500 974
0.992700 224
0.992700 234
0.992800 364
0.992800 743
0.992900 622
0.993600 43
0.993600 792
0.994100 821
0.994200 908
0.994300 157
0.994300 527
0.994400 378
0.994600 875
0.994900 463
0.995100 245
0.995100 432
0.995400 268
0.995500 448
0.996700 206
0.996700 942
0.997100 930
0.997400 212
0.997400 920
0.997700 824
0.998000 99
0.998200 650
0.998400 378
0.998600 276
0.998700 318
0.998900 130
0.998900 328
0.998900 594
0.999300 527
0.999400 67
0.999500 265
0.999500 944
0.999700 229
